205,00	 53,652
206,00	 53,618
207,00	 53,595
208,00	 53,586
209,00	 53,600
210,00	 53,613
211,00	 53,615
212,00	 53,606
213,00	 53,582
214,00	 53,566
215,00	 53,574
216,00	 53,606
217,00	 53,639
218,00	 53,652
219,00	 53,617
220,00	 53,562
221,00	 53,524
222,00	 53,524
223,00	 53,553
224,00	 53,609
225,00	 53,695
226,00	 53,772
227,00	 53,769
228,00	 53,643
229,00	 53,482
230,00	 53,387
231,00	 53,440
232,00	 53,553
233,00	 53,627
234,00	 53,617
235,00	 53,570
236,00	 53,520
237,00	 53,501
238,00	 53,513
239,00	 53,536
240,00	 53,561
241,00	 53,579
242,00	 53,592
243,00	 53,602
244,00	 53,609
245,00	 53,611
246,00	 53,595
247,00	 53,570
248,00	 53,564
249,00	 53,573
250,00	 53,591
251,00	 53,612
252,00	 53,622
253,00	 53,614
254,00	 53,597
255,00	 53,570
256,00	 53,524
257,00	 53,453
258,00	 53,394
259,00	 53,406
260,00	 53,516
261,00	 53,654
262,00	 53,742
263,00	 53,724
264,00	 53,680
265,00	 53,671
266,00	 53,695
267,00	 53,727
268,00	 53,749
269,00	 53,744
270,00	 53,720
271,00	 53,691
272,00	 53,659
273,00	 53,625
274,00	 53,595
275,00	 53,573
276,00	 53,564
277,00	 53,582
278,00	 53,615
279,00	 53,644
280,00	 53,658
281,00	 53,658
282,00	 53,650
283,00	 53,631
284,00	 53,611
285,00	 53,593
286,00	 53,577
287,00	 53,572
288,00	 53,602
289,00	 53,690
290,00	 53,792
291,00	 53,843
292,00	 53,800
293,00	 53,719
294,00	 53,656
295,00	 53,649
296,00	 53,653
297,00	 53,651
298,00	 53,663
299,00	 53,684
300,00	 53,708
301,00	 53,721
302,00	 53,711
303,00	 53,688
304,00	 53,660
305,00	 53,635
306,00	 53,632
307,00	 53,643
308,00	 53,654
309,00	 53,655
310,00	 53,652
311,00	 53,661
312,00	 53,697
313,00	 53,741
314,00	 53,765
315,00	 53,742
316,00	 53,704
317,00	 53,670
318,00	 53,623
319,00	 53,572
320,00	 53,532
321,00	 53,524
322,00	 53,559
323,00	 53,616
324,00	 53,653
325,00	 53,672
326,00	 53,673
327,00	 53,658
328,00	 53,652
329,00	 53,669
330,00	 53,696
331,00	 53,726
332,00	 53,753
333,00	 53,768
334,00	 53,767
335,00	 53,759
336,00	 53,749
337,00	 53,743
338,00	 53,741
339,00	 53,741
340,00	 53,741
341,00	 53,743
342,00	 53,762
343,00	 53,795
344,00	 53,815
345,00	 53,817
346,00	 53,803
347,00	 53,770
348,00	 53,743
349,00	 53,736
350,00	 53,754
351,00	 53,776
352,00	 53,786
353,00	 53,766
354,00	 53,741
355,00	 53,724
356,00	 53,710
357,00	 53,700
358,00	 53,698
359,00	 53,717
360,00	 53,770
361,00	 53,839
362,00	 53,881
363,00	 53,899
364,00	 53,884
365,00	 53,836
366,00	 53,800
367,00	 53,780
368,00	 53,764
369,00	 53,748
370,00	 53,737
371,00	 53,735
372,00	 53,744
373,00	 53,766
374,00	 53,761
375,00	 53,726
376,00	 53,724
377,00	 53,754
378,00	 53,795
379,00	 53,832
380,00	 53,827
381,00	 53,772
382,00	 53,696
383,00	 53,631
384,00	 53,609
385,00	 53,662
386,00	 53,736
387,00	 53,768
388,00	 53,735
389,00	 53,680
390,00	 53,645
391,00	 53,667
392,00	 53,710
393,00	 53,739
394,00	 53,739
395,00	 53,727
396,00	 53,715
397,00	 53,723
398,00	 53,760
399,00	 53,806
400,00	 53,845
401,00	 53,850
402,00	 53,805
403,00	 53,743
404,00	 53,692
405,00	 53,679
406,00	 53,689
407,00	 53,695
408,00	 53,699
409,00	 53,707
410,00	 53,724
411,00	 53,759
412,00	 53,804
413,00	 53,833
414,00	 53,811
415,00	 53,767
416,00	 53,736
417,00	 53,743
418,00	 53,756
419,00	 53,747
420,00	 53,729
421,00	 53,717
422,00	 53,727
423,00	 53,769
424,00	 53,797
425,00	 53,805
426,00	 53,819
427,00	 53,839
428,00	 53,862
429,00	 53,881
430,00	 53,888
431,00	 53,889
432,00	 53,882
433,00	 53,881
434,00	 53,917
435,00	 53,978
436,00	 54,036
437,00	 54,069
438,00	 54,061
439,00	 54,036
440,00	 54,029
441,00	 54,040
442,00	 54,053
443,00	 54,056
444,00	 54,045
445,00	 54,042
446,00	 54,075
447,00	 54,128
448,00	 54,172
449,00	 54,187
450,00	 54,180
451,00	 54,180
452,00	 54,198
453,00	 54,228
454,00	 54,265
455,00	 54,317
456,00	 54,404
457,00	 54,529
458,00	 54,642
459,00	 54,743
460,00	 54,834
461,00	 54,915
462,00	 54,984
463,00	 55,037
464,00	 55,046
465,00	 55,041
466,00	 55,216
467,00	 55,530
468,00	 55,890
469,00	 56,277
470,00	 56,622
471,00	 57,087
472,00	 57,809
473,00	 58,739
474,00	 59,967
475,00	 61,740
476,00	 63,560
477,00	 65,576
478,00	 67,859
479,00	 70,117
480,00	 72,056
481,00	 73,323
482,00	 74,125
483,00	 74,588
484,00	 74,223
485,00	 73,276
486,00	 71,818
487,00	 69,787
488,00	 67,630
489,00	 65,231
490,00	 62,916
491,00	 60,800
492,00	 59,150
493,00	 58,250
494,00	 57,609
495,00	 56,954
496,00	 56,407
497,00	 56,082
498,00	 55,853
499,00	 55,611
500,00	 55,403
501,00	 55,281
502,00	 55,231
503,00	 55,161
504,00	 55,061
505,00	 54,959
506,00	 54,880
507,00	 54,861
508,00	 54,902
509,00	 54,961
510,00	 54,999
511,00	 55,010
512,00	 54,995
513,00	 54,950
514,00	 54,925
515,00	 54,933
516,00	 54,941
517,00	 54,948
518,00	 54,970
519,00	 55,028
520,00	 55,113
521,00	 55,219
522,00	 55,314
523,00	 55,376
524,00	 55,355
525,00	 55,220
526,00	 55,107
527,00	 55,052
528,00	 55,057
529,00	 55,144
530,00	 55,237
531,00	 55,298
532,00	 55,339
533,00	 55,355
534,00	 55,337
535,00	 55,303
536,00	 55,285
537,00	 55,291
538,00	 55,322
539,00	 55,393
540,00	 55,480
541,00	 55,577
542,00	 55,684
543,00	 55,778
544,00	 55,829
545,00	 55,802
546,00	 55,768
547,00	 55,796
548,00	 55,883
549,00	 55,993
550,00	 56,104
551,00	 56,201
552,00	 56,294
553,00	 56,409
554,00	 56,527
555,00	 56,643
556,00	 56,755
557,00	 56,871
558,00	 56,996
559,00	 57,128
560,00	 57,257
561,00	 57,407
562,00	 57,629
563,00	 57,893
564,00	 58,151
565,00	 58,379
566,00	 58,557
567,00	 58,797
568,00	 59,149
569,00	 59,559
570,00	 60,006
571,00	 60,505
572,00	 60,935
573,00	 61,432
574,00	 62,118
575,00	 62,922
576,00	 63,829
577,00	 64,862
578,00	 65,836
579,00	 67,038
580,00	 68,559
581,00	 70,213
582,00	 71,868
583,00	 73,367
584,00	 74,676
585,00	 76,580
586,00	 79,251
587,00	 82,307
588,00	 85,480
589,00	 88,530
590,00	 91,100
591,00	 93,324
592,00	 95,124
593,00	 95,944
594,00	 95,283
595,00	 93,880
596,00	 92,083
597,00	 89,759
598,00	 87,537
599,00	 85,035
600,00	 81,857
601,00	 78,459
602,00	 75,143
603,00	 72,063
604,00	 69,523
605,00	 67,057
606,00	 65,173
607,00	 63,774
608,00	 62,616
609,00	 61,642
610,00	 60,894
611,00	 60,175
612,00	 59,572
613,00	 59,055
614,00	 58,591
615,00	 58,213
616,00	 57,970
617,00	 57,751
618,00	 57,498
619,00	 57,215
620,00	 56,910
621,00	 56,612
622,00	 56,402
623,00	 56,250
624,00	 56,132
625,00	 56,028
626,00	 55,895
627,00	 55,742
628,00	 55,613
629,00	 55,548
630,00	 55,517
631,00	 55,449
632,00	 55,356
633,00	 55,271
634,00	 55,219
635,00	 55,235
636,00	 55,276
637,00	 55,273
638,00	 55,197
639,00	 55,087
640,00	 54,976
641,00	 54,893
642,00	 54,847
643,00	 54,826
644,00	 54,833
645,00	 54,846
646,00	 54,844
647,00	 54,806
648,00	 54,757
649,00	 54,734
650,00	 54,758
651,00	 54,793
652,00	 54,800
653,00	 54,754
654,00	 54,714
655,00	 54,702
656,00	 54,726
657,00	 54,794
658,00	 54,836
659,00	 54,833
660,00	 54,800
661,00	 54,722
662,00	 54,615
663,00	 54,514
664,00	 54,498
665,00	 54,546
666,00	 54,617
667,00	 54,689
668,00	 54,723
669,00	 54,730
670,00	 54,752
671,00	 54,784
672,00	 54,808
673,00	 54,807
674,00	 54,792
675,00	 54,794
676,00	 54,829
677,00	 54,873
678,00	 54,894
679,00	 54,860
680,00	 54,799
681,00	 54,747
682,00	 54,726
683,00	 54,720
684,00	 54,709
685,00	 54,677
686,00	 54,627
687,00	 54,564
688,00	 54,511
689,00	 54,476
690,00	 54,482
691,00	 54,516
692,00	 54,494
693,00	 54,420
694,00	 54,309
695,00	 54,180
696,00	 54,125
697,00	 54,126
698,00	 54,142
699,00	 54,144
700,00	 54,125
701,00	 54,100
702,00	 54,096
703,00	 54,107
704,00	 54,120
705,00	 54,124
706,00	 54,109
707,00	 54,071
708,00	 54,018
709,00	 53,966
710,00	 53,933
711,00	 53,938
712,00	 53,968
713,00	 54,000
714,00	 54,016
715,00	 54,017
716,00	 53,994
717,00	 53,949
718,00	 53,927
719,00	 53,952
720,00	 54,004
721,00	 54,046
722,00	 54,034
723,00	 53,948
724,00	 53,888
725,00	 53,867
726,00	 53,875
727,00	 53,907
728,00	 53,921
729,00	 53,913
730,00	 53,892
731,00	 53,859
732,00	 53,821
733,00	 53,790
734,00	 53,788
735,00	 53,808
736,00	 53,838
737,00	 53,878
738,00	 53,921
739,00	 53,956
740,00	 53,963
741,00	 53,952
742,00	 53,935
743,00	 53,920
744,00	 53,921
745,00	 53,923
746,00	 53,901
747,00	 53,877
748,00	 53,884
749,00	 53,949
750,00	 54,029
751,00	 54,058
752,00	 54,002
753,00	 53,915
754,00	 53,851
755,00	 53,846
756,00	 53,860
757,00	 53,874
758,00	 53,892
759,00	 53,906
760,00	 53,878
761,00	 53,829
762,00	 53,796
763,00	 53,812
764,00	 53,832
765,00	 53,818
766,00	 53,797
767,00	 53,785
768,00	 53,789
769,00	 53,813
770,00	 53,812
771,00	 53,787
772,00	 53,795
773,00	 53,827
774,00	 53,862
775,00	 53,881
776,00	 53,886
777,00	 53,879
778,00	 53,860
779,00	 53,839
780,00	 53,827
781,00	 53,831
782,00	 53,842
783,00	 53,865
784,00	 53,907
785,00	 53,949
786,00	 53,963
787,00	 53,933
788,00	 53,902
789,00	 53,891
790,00	 53,915
791,00	 53,989
792,00	 54,054
793,00	 54,081
794,00	 54,067
795,00	 53,980
796,00	 53,858
797,00	 53,741
798,00	 53,649
799,00	 53,615
